currentTimeStep, cubeRomeo.position.x, cubeRomeo.velocity.x, springPotentialEnergy, cubeRomeoKinetic, springForceX
0.02,5.254007,2.039999,3.799988E-05,4.161597,-0.0189674
0.04,5.294803,2.039809,0.004751057,4.160823,-0.2120859
0.06,5.335557,2.037688,0.01732544,4.152174,-0.4050035
0.08,5.37623,2.033638,0.0377135,4.135685,-0.5975373
0.09999999,5.416783,2.027663,0.06583792,4.111417,-0.7895046
0.12,5.457178,2.019768,0.1015924,4.079463,-0.9807248
0.14,5.497377,2.009961,0.1448416,4.039942,-1.171017
0.16,5.537343,1.99825,0.1954219,3.993005,-1.360201
0.18,5.577035,1.984648,0.2531412,3.938829,-1.548097
0.2,5.616419,1.969167,0.3177817,3.87762,-1.734527
0.22,5.655455,1.951822,0.3890979,3.80961,-1.919314
0.24,5.694108,1.932629,0.4668201,3.735055,-2.102284
0.26,5.73234,1.911606,0.550655,3.654238,-2.283266
0.28,5.770115,1.888774,0.6402841,3.567466,-2.462085
0.3,5.807398,1.864153,0.7353678,3.475065,-2.638572
0.32,5.844154,1.837767,0.8355476,3.377388,-2.812563
0.34,5.880347,1.809641,0.9404427,3.274802,-2.98389
0.36,5.915943,1.779802,1.049656,3.167697,-3.152391
0.38,5.950908,1.748278,1.162775,3.056478,-3.317909
0.4,5.98521,1.715099,1.27937,2.941566,-3.480284
0.42,6.018816,1.680297,1.399001,2.823397,-3.639366
0.4400001,6.051694,1.643903,1.521215,2.702417,-3.795001
0.4600001,6.083813,1.605953,1.645549,2.579085,-3.947045
0.4800001,6.115143,1.566483,1.771532,2.453868,-4.095351
0.5000001,6.145653,1.525529,1.898686,2.327239,-4.239779
0.52,6.175316,1.483131,2.026531,2.199678,-4.380194
0.54,6.204103,1.439329,2.154584,2.071669,-4.516462
0.56,6.231986,1.394165,2.282359,1.943696,-4.648455
0.58,6.25894,1.34768,2.409371,1.816242,-4.776046
0.6,6.284938,1.29992,2.535142,1.689791,-4.899117
0.6199999,6.309957,1.250929,2.659193,1.564822,-5.017548
0.6399999,6.333972,1.200753,2.781054,1.441808,-5.131228
0.6599999,6.356961,1.149441,2.900265,1.321214,-5.240051
0.6799999,6.378901,1.09704,3.016375,1.203497,-5.343913
0.6999999,6.399774,1.043601,3.128945,1.089103,-5.442715
0.7199998,6.419557,0.989174,3.237548,0.9784652,-5.536365
0.7399998,6.438233,0.9338104,3.341772,0.8720018,-5.624774
0.7599998,6.455785,0.8775626,3.441224,0.7701162,-5.707857
0.7799998,6.472195,0.820484,3.535526,0.6731941,-5.785537
0.7999998,6.487447,0.7626287,3.624321,0.5816025,-5.857738
0.8199998,6.501528,0.7040513,3.707273,0.4956883,-5.924394
0.8399997,6.514424,0.6448074,3.784068,0.4157766,-5.985441
0.8599997,6.526124,0.584953,3.854417,0.34217,-6.040822
0.8799997,6.536614,0.5245448,3.918051,0.2751472,-6.090483
0.8999997,6.545887,0.4636399,3.974729,0.214962,-6.134377
0.9199997,6.553933,0.4022962,4.02424,0.1618422,-6.172465
0.9399996,6.560745,0.3405715,4.066395,0.115989,-6.204709
0.9599996,6.566315,0.2785244,4.101031,0.07757585,-6.231078
0.9799996,6.57064,0.2162137,4.128021,0.04674835,-6.251549
0.9999996,6.573714,0.1536982,4.147262,0.02362313,-6.266101
1.02,6.575534,0.09103717,4.158678,0.008287766,-6.274719
1.04,6.5761,0.02828998,4.16223,0.000800323,-6.277398
1.06,6.575411,-0.034484,4.157903,0.001189146,-6.274134
1.08,6.573466,-0.09722534,4.145711,0.009452767,-6.264929
1.1,6.570269,-0.1598746,4.125702,0.0255599,-6.249793
1.12,6.565821,-0.2223726,4.097954,0.04944956,-6.228739
1.14,6.560128,-0.28466,4.062567,0.08103129,-6.201788
1.159999,6.553194,-0.3466778,4.01968,0.1201855,-6.168966
1.179999,6.545027,-0.4083675,3.969454,0.166764,-6.130304
1.199999,6.535634,-0.4696706,3.91208,0.2205904,-6.08584
1.219999,6.525023,-0.530529,3.847772,0.281461,-6.035612
1.239999,6.513205,-0.5908851,3.776774,0.3491452,-5.979669
1.259999,6.500191,-0.6506818,3.699357,0.4233868,-5.918065
1.279999,6.485994,-0.7098625,3.615813,0.5039047,-5.850859
1.299999,6.470626,-0.768371,3.526459,0.5903941,-5.778113
1.319999,6.454103,-0.8261521,3.431634,0.6825274,-5.699898
1.339999,6.43644,-0.8831511,3.331695,0.7799559,-5.616286
1.359999,6.417654,-0.9393139,3.22702,0.8823107,-5.527357
1.379999,6.397762,-0.9945875,3.118008,0.9892043,-5.433195
1.399999,6.376784,-1.048919,3.005069,1.100232,-5.333888
1.419999,6.354739,-1.102258,2.888633,1.214973,-5.229533
1.439999,6.331648,-1.154554,2.769141,1.332994,-5.120227
1.459999,6.307533,-1.205756,2.647043,1.453847,-5.006073
1.479999,6.282416,-1.255817,2.522801,1.577076,-4.887178
1.499999,6.256322,-1.304688,2.396887,1.702212,-4.763656
1.519999,6.229276,-1.352325,2.269777,1.828783,-4.635625
1.539999,6.201302,-1.398681,2.141954,1.956309,-4.503205
1.559999,6.172428,-1.443713,2.0139,2.084308,-4.366521
1.579999,6.14268,-1.487378,1.886102,2.212294,-4.225705
1.599999,6.112087,-1.529635,1.75904,2.339785,-4.080886
1.619999,6.080678,-1.570444,1.633199,2.466295,-3.932206
1.639999,6.048483,-1.609766,1.509055,2.591348,-3.779803
1.659999,6.015532,-1.647564,1.387075,2.714468,-3.62382
1.679999,5.981856,-1.683803,1.267723,2.835191,-3.464406
1.699999,5.947487,-1.718447,1.151451,2.953059,-3.301713
1.719999,5.912457,-1.751464,1.038698,3.067625,-3.135893
1.739999,5.876801,-1.782823,0.9298924,3.178457,-2.967105
1.759999,5.840551,-1.812494,0.825446,3.285134,-2.79551
1.779999,5.803742,-1.840449,0.7257531,3.387252,-2.621266
1.799999,5.766409,-1.866662,0.6311921,3.484425,-2.444542
1.819999,5.728587,-1.891107,0.5421199,3.576286,-2.265501
1.839999,5.690312,-1.913762,0.4588748,3.662485,-2.084317
1.859999,5.65162,-1.934605,0.3817717,3.742697,-1.901159
1.879999,5.612547,-1.953617,0.3111021,3.816618,-1.716201
1.899999,5.573132,-1.970779,0.2471345,3.883969,-1.529619
1.919999,5.533411,-1.986075,0.1901102,3.944494,-1.341588
1.939999,5.493421,-1.999491,0.1402452,3.997964,-1.152287
1.959999,5.4532,-2.011014,0.09772871,4.044176,-0.9618951
1.979999,5.412788,-2.020633,0.06272167,4.082957,-0.7705937
1.999999,5.372221,-2.028339,0.03535615,4.114158,-0.5785609
2.019999,5.331539,-2.034124,0.01573623,4.137662,-0.3859819
2.039999,5.290779,-2.037984,0.003935943,4.153379,-0.1930372
